

   Time         sum(rTop)     sum(rRoot)    sum(vTop)     sum(vRoot)     sum(vBot)    hTop       hRoot      hBot      A-level
    [T]           [L]           [L]           [L]           [L]            [L]        [L]         [L]       [L] 

     1.00000  0.100000E+00  0.000000E+00  0.100000E+00  0.000000E+00 -0.166015E+00 -56868.816      0.000    -63.564       1
     2.00000  0.400000E+00  0.000000E+00  0.143175E+00  0.000000E+00 -0.289725E+00-100000.000      0.000    -68.771       2
     3.00000  0.900000E+00  0.000000E+00  0.166428E+00  0.000000E+00 -0.392131E+00-100000.000      0.000    -72.547       3
     4.00000  0.120000E+01  0.000000E+00  0.184680E+00  0.000000E+00 -0.478129E+00-100000.000      0.000    -75.652       4
     5.00000  0.170000E+01  0.000000E+00  0.201251E+00  0.000000E+00 -0.553906E+00-100000.000      0.000    -78.753       5
     6.00000  0.220000E+01  0.000000E+00  0.216886E+00  0.000000E+00 -0.623995E+00-100000.000      0.000    -81.374       6
     7.00000  0.260000E+01  0.000000E+00  0.231693E+00  0.000000E+00 -0.689102E+00-100000.000      0.000    -83.707       7
     8.00000  0.300000E+01  0.000000E+00  0.245796E+00  0.000000E+00 -0.749726E+00-100000.000      0.000    -85.821       8
     9.00000  0.330000E+01  0.000000E+00  0.259325E+00  0.000000E+00 -0.806259E+00-100000.000      0.000    -87.760       9
    10.00000  0.370000E+01  0.000000E+00  0.272417E+00  0.000000E+00 -0.859022E+00-100000.000      0.000    -89.555      10
    11.00000  0.390000E+01  0.000000E+00  0.285187E+00  0.000000E+00 -0.908281E+00-100000.000      0.000    -91.228      11
    12.00000  0.410000E+01  0.000000E+00  0.297727E+00  0.000000E+00 -0.954261E+00-100000.000      0.000    -92.799      12
    13.00000  0.450000E+01  0.000000E+00  0.310108E+00  0.000000E+00 -0.997147E+00-100000.000      0.000    -94.288      13
    14.00000  0.490000E+01  0.000000E+00  0.322384E+00  0.000000E+00 -0.103710E+01-100000.000      0.000    -95.836      14
    15.00000  0.520000E+01  0.000000E+00  0.334600E+00  0.000000E+00 -0.107523E+01-100000.000      0.000    -97.448      15
    16.00000  0.540000E+01  0.000000E+00  0.346788E+00  0.000000E+00 -0.111213E+01-100000.000      0.000    -98.931      16
    17.00000  0.580000E+01  0.000000E+00  0.358974E+00  0.000000E+00 -0.114785E+01-100000.000      0.000   -100.335      17
    18.00000  0.630000E+01  0.000000E+00  0.371176E+00  0.000000E+00 -0.118247E+01-100000.000      0.000   -101.673      18
    19.00000  0.660000E+01  0.000000E+00  0.383409E+00  0.000000E+00 -0.121603E+01-100000.000      0.000   -102.956      19
    20.00000  0.680000E+01  0.000000E+00  0.395680E+00  0.000000E+00 -0.124856E+01-100000.000      0.000   -104.188      20
    21.00000  0.730000E+01  0.000000E+00  0.407997E+00  0.000000E+00 -0.128012E+01-100000.000      0.000   -105.374      21
    22.00000  0.750000E+01  0.000000E+00  0.420360E+00  0.000000E+00 -0.131074E+01-100000.000      0.000   -106.519      22
    23.00000  0.760001E+01  0.000000E+00  0.432770E+00  0.000000E+00 -0.134044E+01-100000.000      0.000   -107.626      23
    24.00000  0.790001E+01  0.000000E+00  0.445226E+00  0.000000E+00 -0.136926E+01-100000.000      0.000   -108.697      24
    25.00000  0.810001E+01  0.000000E+00  0.457725E+00  0.000000E+00 -0.139722E+01-100000.000      0.000   -109.736      25
end
