

   Time         sum(rTop)     sum(rRoot)    sum(vTop)     sum(vRoot)     sum(vBot)    hTop       hRoot      hBot      A-level
    [T]           [L]           [L]           [L]           [L]            [L]        [L]         [L]       [L] 

     1.00000  0.100000E+00  0.000000E+00  0.733157E-01  0.000000E+00 -0.213710E-01-100000.000      0.000   -168.284       1
     2.00000  0.400000E+00  0.000000E+00  0.902519E-01  0.000000E+00 -0.393532E-01-100000.000      0.000   -176.894       2
     3.00000  0.900000E+00  0.000000E+00  0.101424E+00  0.000000E+00 -0.553133E-01-100000.000      0.000   -183.194       3
     4.00000  0.120000E+01  0.000000E+00  0.110284E+00  0.000000E+00 -0.696765E-01-100000.000      0.000   -188.437       4
     5.00000  0.170000E+01  0.000000E+00  0.118180E+00  0.000000E+00 -0.826726E-01-100000.000      0.000   -193.673       5
     6.00000  0.220000E+01  0.000000E+00  0.125304E+00  0.000000E+00 -0.948784E-01-100000.000      0.000   -198.600       6
     7.00000  0.260000E+01  0.000000E+00  0.131783E+00  0.000000E+00 -0.106534E+00-100000.000      0.000   -202.859       7
     8.00000  0.300000E+01  0.000000E+00  0.137747E+00  0.000000E+00 -0.117704E+00-100000.000      0.000   -206.671       8
     9.00000  0.330000E+01  0.000000E+00  0.143303E+00  0.000000E+00 -0.128434E+00-100000.000      0.000   -210.145       9
    10.00000  0.370000E+01  0.000000E+00  0.148548E+00  0.000000E+00 -0.138761E+00-100000.000      0.000   -213.349      10
    11.00000  0.390000E+01  0.000000E+00  0.153581E+00  0.000000E+00 -0.148714E+00-100000.000      0.000   -216.330      11
    12.00000  0.410000E+01  0.000000E+00  0.158453E+00  0.000000E+00 -0.158318E+00-100000.000      0.000   -219.126      12
    13.00000  0.450000E+01  0.000000E+00  0.163189E+00  0.000000E+00 -0.167592E+00-100000.000      0.000   -221.764      13
    14.00000  0.490000E+01  0.000000E+00  0.167804E+00  0.000000E+00 -0.176555E+00-100000.000      0.000   -224.267      14
    15.00000  0.520000E+01  0.000000E+00  0.172312E+00  0.000000E+00 -0.185222E+00-100000.000      0.000   -226.654      15
    16.00000  0.540000E+01  0.000000E+00  0.176736E+00  0.000000E+00 -0.193606E+00-100000.000      0.000   -228.942      16
    17.00000  0.580000E+01  0.000000E+00  0.181082E+00  0.000000E+00 -0.201718E+00-100000.000      0.000   -231.143      17
    18.00000  0.630000E+01  0.000000E+00  0.185354E+00  0.000000E+00 -0.209567E+00-100000.000      0.000   -233.272      18
    19.00000  0.660000E+01  0.000000E+00  0.189555E+00  0.000000E+00 -0.217161E+00-100000.000      0.000   -235.341      19
    20.00000  0.680000E+01  0.000000E+00  0.193692E+00  0.000000E+00 -0.224507E+00-100000.000      0.000   -237.366      20
    21.00000  0.730000E+01  0.000000E+00  0.197769E+00  0.000000E+00 -0.231609E+00-100000.000      0.000   -239.370      21
    22.00000  0.750000E+01  0.000000E+00  0.201791E+00  0.000000E+00 -0.238466E+00-100000.000      0.000   -241.410      22
    23.00000  0.760001E+01  0.000000E+00  0.205762E+00  0.000000E+00 -0.245104E+00-100000.000      0.000   -243.867      23
    24.00000  0.790001E+01  0.000000E+00  0.209687E+00  0.000000E+00 -0.251618E+00-100000.000      0.000   -246.147      24
    25.00000  0.810001E+01  0.000000E+00  0.213571E+00  0.000000E+00 -0.258019E+00-100000.000      0.000   -248.292      25
end
